Sensor Model:	CX-1070-CU-HT-4L
Serial Number:	X100332
Data Format:	7	(Ohms/Kelvin)
Setpoint Limit:	325

Measurement (ohms)	Temp (K)	Curvature
1.19241E+02	3.30192E+02	5.51932E-02
1.20658E+02	3.26169E+02	5.30297E-02
1.22847E+02	3.20160E+02	4.96872E-02
1.24753E+02	3.15124E+02	4.70564E-02
1.26701E+02	3.10151E+02	4.44874E-02
1.30848E+02	3.00119E+02	3.96712E-02
1.35298E+02	2.90113E+02	3.52688E-02
1.40109E+02	2.80082E+02	3.12139E-02
1.45289E+02	2.70088E+02	2.75237E-02
1.50908E+02	2.60084E+02	2.41600E-02
1.57017E+02	2.50072E+02	2.11091E-02
1.63666E+02	2.40071E+02	1.83585E-02
1.70932E+02	2.30071E+02	1.58871E-02
1.78896E+02	2.20075E+02	1.36772E-02
1.87675E+02	2.10060E+02	1.17060E-02
1.97368E+02	2.00052E+02	9.96077E-03
2.08107E+02	1.90056E+02	8.42311E-03
2.20092E+02	1.80049E+02	7.07166E-03
2.33509E+02	1.70053E+02	5.89210E-03
2.48645E+02	1.60049E+02	4.86577E-03
2.65828E+02	1.50044E+02	3.97785E-03
2.85475E+02	1.40045E+02	3.21507E-03
3.08188E+02	1.30033E+02	2.56061E-03
3.34609E+02	1.20050E+02	2.01420E-03
3.65884E+02	1.10047E+02	1.53979E-03
4.03366E+02	1.00050E+02	1.16915E-03
4.25064E+02	9.50512E+01	1.00716E-03
4.49154E+02	9.00559E+01	8.56257E-04
4.76053E+02	8.50656E+01	7.22162E-04
5.06353E+02	8.00700E+01	6.02178E-04
5.40661E+02	7.50810E+01	4.96213E-04
5.79928E+02	7.00874E+01	4.03139E-04
6.25221E+02	6.50996E+01	3.22351E-04
6.78299E+02	6.00956E+01	2.52814E-04
7.41095E+02	5.50951E+01	1.93780E-04
8.16440E+02	5.01046E+01	1.45396E-04
8.51083E+02	4.81048E+01	1.29104E-04
9.08685E+02	4.51152E+01	1.05761E-04
9.74935E+02	4.21108E+01	8.56810E-05
1.05112E+03	3.91210E+01	6.83326E-05
1.14041E+03	3.61213E+01	5.34597E-05
1.24615E+03	3.31204E+01	4.10634E-05
1.33277E+03	3.10142E+01	3.37213E-05
1.41749E+03	2.92012E+01	2.81034E-05
1.50249E+03	2.75863E+01	2.35833E-05
1.59851E+03	2.59674E+01	1.99288E-05
1.70787E+03	2.43458E+01	1.59860E-05
1.83312E+03	2.27254E+01	1.31894E-05
1.97466E+03	2.11426E+01	1.05727E-05
2.08338E+03	2.00744E+01	9.06642E-06
2.19335E+03	1.91034E+01	7.78005E-06
2.31619E+03	1.81301E+01	6.61845E-06
2.45382E+03	1.71580E+01	5.56998E-06
2.60949E+03	1.61857E+01	4.63047E-06
2.78913E+03	1.52030E+01	3.78683E-06
2.99734E+03	1.42167E+01	3.04259E-06
3.24307E+03	1.32222E+01	2.39067E-06
3.53813E+03	1.22185E+01	1.82782E-06
3.90062E+03	1.12028E+01	1.34980E-06
4.35726E+03	1.01752E+01	9.54078E-07
4.94370E+03	9.14696E+00	6.40205E-07
5.72834E+03	8.11494E+00	3.99311E-07
6.82597E+03	7.08414E+00	2.29044E-07
8.06564E+03	6.26654E+00	1.35938E-07
9.59659E+03	5.55236E+00	7.90624E-08
1.10976E+04	5.04332E+00	5.10084E-08
1.28205E+04	4.60371E+00	3.27028E-08
1.48080E+04	4.22014E+00	2.13604E-08
1.62131E+04	4.00353E+00	1.63824E-08
1.77740E+04	3.80116E+00	1.27234E-08
1.96320E+04	3.59995E+00	8.36804E-09
